#F f1f2_BrennanCowan.dat
#C This file has been created using f1f2_BrennanCowan fortran program.
#C  This file belongs to the DABAX library. More information on
#C  DABAX can be found at:
#C  http://www.esrf.fr/computing/expg/subgroups/theory/DABAX/dabax.html
#UT Elastic Photon-Atom Scattering, anomalous scattering factors.
#U3W Sheet_ScatFac
#UIDL xf1f2
#UD Elastic Photon-Atom Scattering, anomalous scattering factors.
#UD 
#UD The scattering factor values in this file have been calculated 
#UD using the subroutine library by Brennan and Cowan:
#UD S. Brennan and P.L. Cowan (1992), Rev. Sci. Instrum. 63, 850.
#UD  
#UD The values for f1 and f2 are calculated using the theoretical
#UD approximation developed by Cromer and Liberman. This theory gives
#UD accurate values far from an absorption edge but does not account 
#UD for the effects of neighboring atoms, which can be 
#UD critical near an absorption edge. 
#UD 
#UD The program suite described by Brennan and Cowan (1992) is
#UD available by ftp from the authors from
#UD http://www-ssrl.slac.stanford.edu/absorb.html or
#UD ftp://ftpa.aps.anl.gov/pub/cross-section_codes/sb-1.0.tar.Z 
#UD WWW interfaces to the values produced by Brennan & Cowan library
#UD can be found at the URL:
#UD http://www.bmsc.washington.edu:80/scatter/AS_periodic.html
#UD http://www.bmsc.washington.edu/scatter/periodic-table.html
#UD 
#UD The data in this file contains 520 energy points in a logarithmic
#UD scale, which can be calculated from:
#UD Cte = log10(1.0D4/30.)/300.
#UD Energy(i) = 30.*10.**((i-1)*Cte), 0<i<521
#UD and are available for elements with Z in from 3 to 92.
#UD 
#UD Column description: Energy[eV] f1 f2 
#UD (f1 and f2 are in electron units.)
#UD 
#S  3 Li
#UF1ADD  3.0
#N 3
#L  Energy[eV]  f1  f2
  30.000       -1.9990       0.10689      
  30.587       -2.0095       0.10525      
  31.185       -2.0208       0.10361      
  31.794       -2.0329       0.10197      
  32.416       -2.0459       0.10033      
  33.050       -2.0599       0.98698E-01  
  33.696       -2.0749       0.97064E-01  
  34.355       -2.0910       0.95434E-01  
  35.027       -2.1084       0.93808E-01  
  35.711       -2.1271       0.92187E-01  
  36.410       -2.1473       0.90571E-01  
  37.122       -2.1691       0.88962E-01  
  37.847       -2.1928       0.87360E-01  
  38.587       -2.2185       0.85766E-01  
  39.342       -2.2464       0.84180E-01  
  40.111       -2.2769       0.82603E-01  
  40.895       -2.3103       0.81036E-01  
  41.695       -2.3469       0.79479E-01  
  42.510       -2.3874       0.77932E-01  
  43.341       -2.4322       0.76397E-01  
  44.189       -2.4821       0.74873E-01  
  45.053       -2.5380       0.73362E-01  
  45.934       -2.6011       0.71864E-01  
  46.832       -2.6730       0.70379E-01  
  47.748       -2.7556       0.68907E-01  
  48.681       -2.8517       0.67450E-01  
  49.633       -2.9651       0.66007E-01  
  50.603       -3.1011       0.64579E-01  
  51.593       -3.2680       0.63167E-01  
  52.602       -3.4783       0.61770E-01  
  53.630       -3.7531       0.60389E-01  
  54.679       -4.1298       0.59025E-01  
  55.748       -4.2498        2.6751      
  56.838       -3.6114        2.6736      
  57.949       -3.2309        2.6705      
  59.082       -2.9524        2.6659      
  60.237       -2.7288        2.6597      
  61.415       -2.5396        2.6519      
  62.616       -2.3739        2.6427      
  63.840       -2.2254        2.6320      
  65.089       -2.0901        2.6197      
  66.361       -1.9652        2.6060      
  67.659       -1.8488        2.5908      
  68.982       -1.7395        2.5743      
  70.330       -1.6363        2.5563      
  71.706       -1.5383        2.5369      
  73.108       -1.4450        2.5163      
  74.537       -1.3559        2.4943      
  75.994       -1.2705        2.4711      
  77.480       -1.1886        2.4466      
  78.995       -1.1099        2.4209      
  80.540       -1.0342        2.3941      
  82.115      -0.96137        2.3662      
  83.720      -0.89117        2.3373      
  85.357      -0.82351        2.3073      
  87.026      -0.75831        2.2764      
  88.728      -0.69546        2.2446      
  90.462      -0.63490        2.2118      
  92.231      -0.57655        2.1783      
  94.035      -0.52035        2.1440      
  95.873      -0.46625        2.1091      
  97.748      -0.41421        2.0734      
  99.659      -0.36418        2.0371      
  101.61      -0.32039        2.0004      
  103.59      -0.27421        1.9632      
  105.62      -0.22992        1.9256      
  107.68      -0.18750        1.8875      
  109.79      -0.14690        1.8492      
  111.94      -0.10811        1.8105      
  114.13      -0.71076E-01    1.7716      
  116.36      -0.35785E-01    1.7324      
  118.63      -0.21992E-02    1.6932      
  120.95       0.29711E-01    1.6538      
  123.32       0.59978E-01    1.6144      
  125.73       0.88633E-01    1.5750      
  128.19       0.11571        1.5357      
  130.69       0.14124        1.4965      
  133.25       0.16525        1.4573      
  135.85       0.18779        1.4184      
  138.51       0.20888        1.3797      
  141.22       0.22855        1.3412      
  143.98       0.24686        1.3031      
  146.79       0.26382        1.2653      
  149.66       0.27949        1.2278      
  152.59       0.29388        1.1907      
  155.57       0.30706        1.1541      
  158.62       0.31904        1.1180      
  161.72       0.32987        1.0823      
  164.88       0.33958        1.0471      
  168.10       0.34823        1.0125      
  171.39       0.35583       0.97848      
  174.74       0.36244       0.94501      
  178.16       0.36809       0.91215      
  181.64       0.37282       0.87990      
  185.19       0.37668       0.84830      
  188.81       0.37968       0.81734      
  192.51       0.38189       0.78705      
  196.27       0.38332       0.75743      
  200.11       0.38403       0.72849      
  204.02       0.38404       0.70024      
  208.01       0.38340       0.67269      
  212.08       0.38214       0.64584      
  216.22       0.38029       0.61970      
  220.45       0.26092       0.59639      
  224.76       0.25939       0.57778      
  229.15       0.25766       0.55968      
  233.64       0.25577       0.54208      
  238.20       0.25370       0.52496      
  242.86       0.25149       0.50832      
  247.61       0.24913       0.49215      
  252.45       0.24665       0.47644      
  257.39       0.24405       0.46116      
  262.42       0.24134       0.44632      
  267.55       0.23853       0.43191      
  272.78       0.23563       0.41790      
  278.12       0.23265       0.40430      
  283.55       0.22960       0.39110      
  289.10       0.22648       0.37828      
  294.75       0.22331       0.36583      
  300.51       0.22008       0.35375      
  306.39       0.21681       0.34202      
  312.38       0.21351       0.33064      
  318.49       0.21017       0.31960      
  324.71       0.20680       0.30889      
  331.06       0.20341       0.29850      
  337.54       0.20001       0.28842      
  344.14       0.19659       0.27865      
  350.86       0.19317       0.26918      
  357.73       0.18974       0.26000      
  364.72       0.18631       0.25109      
  371.85       0.18289       0.24247      
  379.12       0.17948       0.23411      
  386.53       0.17607       0.22601      
  394.09       0.17268       0.21816      
  401.80       0.16931       0.21056      
  409.65       0.16596       0.20319      
  417.66       0.16263       0.19606      
  425.83       0.15932       0.18916      
  434.16       0.15604       0.18248      
  442.64       0.15279       0.17601      
  451.30       0.14956       0.16975      
  460.12       0.14637       0.16369      
  469.12       0.14322       0.15783      
  478.29       0.14009       0.15216      
  487.64       0.13701       0.14667      
  497.18       0.13396       0.14136      
  506.90       0.13095       0.13623      
  516.81       0.12797       0.13127      
  526.92       0.12504       0.12648      
  537.22       0.12215       0.12184      
  547.72       0.11930       0.11736      
  558.43       0.11649       0.11303      
  569.35       0.11373       0.10884      
  580.48       0.11101       0.10480      
  591.83       0.10833       0.10090      
  603.40       0.10569       0.97124E-01  
  615.20       0.10310       0.93481E-01  
  627.23       0.10055       0.89964E-01  
  639.50       0.98051E-01   0.86568E-01  
  652.00       0.95592E-01   0.83290E-01  
  664.75       0.93177E-01   0.80126E-01  
  677.74       0.90806E-01   0.77073E-01  
  691.00       0.88479E-01   0.74126E-01  
  704.51       0.86195E-01   0.71284E-01  
  718.28       0.83955E-01   0.68542E-01  
  732.33       0.81758E-01   0.65897E-01  
  746.65       0.79603E-01   0.63346E-01  
  761.24       0.77490E-01   0.60886E-01  
  776.13       0.75419E-01   0.58514E-01  
  791.30       0.73389E-01   0.56228E-01  
  806.78       0.71399E-01   0.54024E-01  
  822.55       0.69448E-01   0.51900E-01  
  838.63       0.67536E-01   0.49854E-01  
  855.03       0.65659E-01   0.47882E-01  
  871.75       0.63818E-01   0.45982E-01  
  888.79       0.62007E-01   0.44152E-01  
  906.17       0.60224E-01   0.42390E-01  
  923.89       0.58461E-01   0.40693E-01  
  941.95       0.56704E-01   0.39059E-01  
  960.37       0.54925E-01   0.37486E-01  
  979.15       0.53052E-01   0.35971E-01  
  998.29       0.50825E-01   0.34514E-01  
  1017.8       0.49259E-01   0.33162E-01  
  1037.7       0.47828E-01   0.31865E-01  
  1058.0       0.46438E-01   0.30617E-01  
  1078.7       0.45085E-01   0.29416E-01  
  1099.8       0.43766E-01   0.28260E-01  
  1121.3       0.42481E-01   0.27147E-01  
  1143.2       0.41230E-01   0.26077E-01  
  1165.6       0.40012E-01   0.25046E-01  
  1188.4       0.38826E-01   0.24055E-01  
  1211.6       0.37671E-01   0.23102E-01  
  1235.3       0.36547E-01   0.22184E-01  
  1259.4       0.35453E-01   0.21302E-01  
  1284.1       0.34388E-01   0.20453E-01  
  1309.2       0.33353E-01   0.19637E-01  
  1334.8       0.32345E-01   0.18852E-01  
  1360.9       0.31365E-01   0.18097E-01  
  1387.5       0.30412E-01   0.17371E-01  
  1414.6       0.29485E-01   0.16673E-01  
  1442.2       0.28584E-01   0.16002E-01  
  1470.4       0.27708E-01   0.15356E-01  
  1499.2       0.26857E-01   0.14736E-01  
  1528.5       0.26029E-01   0.14140E-01  
  1558.4       0.25225E-01   0.13567E-01  
  1588.9       0.24443E-01   0.13017E-01  
  1619.9       0.23684E-01   0.12487E-01  
  1651.6       0.22947E-01   0.11979E-01  
  1683.9       0.22230E-01   0.11490E-01  
  1716.8       0.21535E-01   0.11021E-01  
  1750.4       0.20859E-01   0.10570E-01  
  1784.6       0.20203E-01   0.10136E-01  
  1819.5       0.19566E-01   0.97201E-02  
  1855.1       0.18948E-01   0.93203E-02  
  1891.4       0.18348E-01   0.89363E-02  
  1928.3       0.17765E-01   0.85676E-02  
  1966.0       0.17200E-01   0.82135E-02  
  2004.5       0.16652E-01   0.78734E-02  
  2043.7       0.16119E-01   0.75469E-02  
  2083.6       0.15603E-01   0.72335E-02  
  2124.4       0.15102E-01   0.69325E-02  
  2165.9       0.14617E-01   0.66436E-02  
  2208.3       0.14145E-01   0.63664E-02  
  2251.4       0.13689E-01   0.61002E-02  
  2295.5       0.13246E-01   0.58448E-02  
  2340.3       0.12816E-01   0.55996E-02  
  2386.1       0.12400E-01   0.53644E-02  
  2432.8       0.11991E-01   0.51387E-02  
  2480.3       0.11600E-01   0.49222E-02  
  2528.8       0.11221E-01   0.47145E-02  
  2578.3       0.10853E-01   0.45152E-02  
  2628.7       0.10497E-01   0.43241E-02  
  2680.1       0.10152E-01   0.41407E-02  
  2732.5       0.98181E-02   0.39649E-02  
  2785.9       0.94942E-02   0.37962E-02  
  2840.4       0.91805E-02   0.36345E-02  
  2895.9       0.88766E-02   0.34794E-02  
  2952.5       0.85823E-02   0.33307E-02  
  3010.3       0.82972E-02   0.31885E-02  
  3069.1       0.80208E-02   0.30538E-02  
  3129.1       0.77533E-02   0.29247E-02  
  3190.3       0.74943E-02   0.28008E-02  
  3252.7       0.72436E-02   0.26821E-02  
  3316.3       0.70011E-02   0.25683E-02  
  3381.1       0.67663E-02   0.24592E-02  
  3447.2       0.65391E-02   0.23547E-02  
  3514.6       0.63193E-02   0.22544E-02  
  3583.4       0.61067E-02   0.21584E-02  
  3653.4       0.59009E-02   0.20663E-02  
  3724.9       0.57018E-02   0.19781E-02  
  3797.7       0.55093E-02   0.18935E-02  
  3872.0       0.53230E-02   0.18125E-02  
  3947.7       0.51428E-02   0.17349E-02  
  4024.8       0.49685E-02   0.16605E-02  
  4103.5       0.48000E-02   0.15892E-02  
  4183.8       0.46370E-02   0.15209E-02  
  4265.6       0.44793E-02   0.14555E-02  
  4349.0       0.43269E-02   0.13929E-02  
  4434.0       0.41795E-02   0.13328E-02  
  4520.7       0.40370E-02   0.12753E-02  
  4609.1       0.38992E-02   0.12202E-02  
  4699.2       0.37659E-02   0.11675E-02  
  4791.1       0.36371E-02   0.11169E-02  
  4884.8       0.35126E-02   0.10685E-02  
  4980.3       0.33922E-02   0.10222E-02  
  5077.7       0.32759E-02   0.97782E-03  
  5176.9       0.31634E-02   0.93532E-03  
  5278.2       0.30547E-02   0.89463E-03  
  5381.4       0.29496E-02   0.85567E-03  
  5486.6       0.28481E-02   0.81836E-03  
  5593.9       0.27499E-02   0.78265E-03  
  5703.2       0.26551E-02   0.74846E-03  
  5814.8       0.25634E-02   0.71573E-03  
  5928.4       0.24749E-02   0.68439E-03  
  6044.4       0.23893E-02   0.65440E-03  
  6162.5       0.23066E-02   0.62570E-03  
  6283.0       0.22267E-02   0.59822E-03  
  6405.9       0.21495E-02   0.57193E-03  
  6531.1       0.20749E-02   0.54676E-03  
  6658.8       0.20028E-02   0.52268E-03  
  6789.0       0.19332E-02   0.49964E-03  
  6921.8       0.18660E-02   0.47759E-03  
  7057.1       0.18010E-02   0.45649E-03  
  7195.1       0.17382E-02   0.43630E-03  
  7335.8       0.16776E-02   0.41698E-03  
  7479.2       0.16190E-02   0.39851E-03  
  7625.5       0.15625E-02   0.38083E-03  
  7774.5       0.15078E-02   0.36392E-03  
  7926.6       0.14551E-02   0.34774E-03  
  8081.5       0.14041E-02   0.33227E-03  
  8239.6       0.13549E-02   0.31747E-03  
  8400.7       0.13073E-02   0.30332E-03  
  8564.9       0.12614E-02   0.28978E-03  
  8732.4       0.12171E-02   0.27684E-03  
  8903.1       0.11742E-02   0.26446E-03  
  9077.2       0.11331E-02   0.25282E-03  
  9254.7       0.10934E-02   0.24169E-03  
  9435.6       0.10551E-02   0.23105E-03  
  9620.1       0.10180E-02   0.22087E-03  
  9808.2       0.98231E-03   0.21114E-03  
  10000.       0.94782E-03   0.20183E-03  
  10196.       0.91452E-03   0.19293E-03  
  10395.       0.88238E-03   0.18441E-03  
  10598.       0.85135E-03   0.17627E-03  
  10805.       0.82140E-03   0.16849E-03  
  11017.       0.79249E-03   0.16104E-03  
  11232.       0.76458E-03   0.15392E-03  
  11452.       0.73765E-03   0.14712E-03  
  11676.       0.71165E-03   0.14061E-03  
  11904.       0.68655E-03   0.13439E-03  
  12137.       0.66233E-03   0.12844E-03  
  12374.       0.63895E-03   0.12275E-03  
  12616.       0.61639E-03   0.11731E-03  
  12862.       0.59461E-03   0.11211E-03  
  13114.       0.57360E-03   0.10714E-03  
  13370.       0.55331E-03   0.10238E-03  
  13632.       0.53374E-03   0.97840E-04  
  13898.       0.51484E-03   0.93496E-04  
  14170.       0.49661E-03   0.89343E-04  
  14447.       0.47902E-03   0.85373E-04  
  14730.       0.46204E-03   0.81577E-04  
  15018.       0.44565E-03   0.77949E-04  
  15311.       0.42984E-03   0.74481E-04  
  15611.       0.41458E-03   0.71166E-04  
  15916.       0.39986E-03   0.67997E-04  
  16227.       0.38565E-03   0.64968E-04  
  16544.       0.37194E-03   0.62073E-04  
  16868.       0.35872E-03   0.59306E-04  
  17198.       0.34595E-03   0.56660E-04  
  17534.       0.33364E-03   0.54132E-04  
  17877.       0.32175E-03   0.51716E-04  
  18226.       0.31029E-03   0.49407E-04  
  18583.       0.29922E-03   0.47199E-04  
  18946.       0.28855E-03   0.45090E-04  
  19316.       0.27825E-03   0.43074E-04  
  19694.       0.26832E-03   0.41147E-04  
  20079.       0.25873E-03   0.39306E-04  
  20472.       0.24948E-03   0.37547E-04  
  20872.       0.24056E-03   0.35865E-04  
  21280.       0.23195E-03   0.34259E-04  
  21696.       0.22365E-03   0.32723E-04  
  22120.       0.21564E-03   0.31256E-04  
  22553.       0.20791E-03   0.29854E-04  
  22994.       0.20046E-03   0.28514E-04  
  23443.       0.19326E-03   0.27234E-04  
  23902.       0.18633E-03   0.26011E-04  
  24369.       0.17964E-03   0.24842E-04  
  24846.       0.17318E-03   0.23726E-04  
  25331.       0.16489E-03   0.22682E-04  
  25827.       0.15894E-03   0.21687E-04  
  26332.       0.15320E-03   0.20735E-04  
  26847.       0.14767E-03   0.19825E-04  
  27372.       0.14237E-03   0.18954E-04  
  27907.       0.13726E-03   0.18121E-04  
  28452.       0.13233E-03   0.17324E-04  
  29009.       0.12757E-03   0.16562E-04  
  29576.       0.12298E-03   0.15833E-04  
  30154.       0.11855E-03   0.15135E-04  
  30744.       0.11428E-03   0.14468E-04  
  31345.       0.11016E-03   0.13830E-04  
  31958.       0.10619E-03   0.13220E-04  
  32583.       0.10236E-03   0.12637E-04  
  33220.       0.98665E-04   0.12079E-04  
  33869.       0.95101E-04   0.11545E-04  
  34531.       0.91665E-04   0.11035E-04  
  35207.       0.88351E-04   0.10547E-04  
  35895.       0.85154E-04   0.10080E-04  
  36597.       0.82072E-04   0.96341E-05  
  37312.       0.79099E-04   0.92074E-05  
  38042.       0.76233E-04   0.87994E-05  
  38786.       0.73469E-04   0.84093E-05  
  39544.       0.70804E-04   0.80364E-05  
  40317.       0.68234E-04   0.76797E-05  
  41106.       0.65755E-04   0.73388E-05  
  41909.       0.63366E-04   0.70128E-05  
  42729.       0.61062E-04   0.67012E-05  
  43564.       0.58840E-04   0.64032E-05  
  44416.       0.56698E-04   0.61184E-05  
  45284.       0.54633E-04   0.58461E-05  
  46170.       0.52642E-04   0.55858E-05  
  47073.       0.50723E-04   0.53369E-05  
  47993.       0.48873E-04   0.50990E-05  
  48931.       0.47089E-04   0.48717E-05  
  49888.       0.45369E-04   0.46543E-05  
  50863.       0.43711E-04   0.44466E-05  
  51858.       0.42113E-04   0.42480E-05  
  52872.       0.40572E-04   0.40582E-05  
  53906.       0.39087E-04   0.38768E-05  
  54960.       0.37656E-04   0.37034E-05  
  56034.       0.36276E-04   0.35377E-05  
  57130.       0.34946E-04   0.33793E-05  
  58247.       0.33664E-04   0.32279E-05  
  59386.       0.32428E-04   0.30833E-05  
  60547.       0.31238E-04   0.29451E-05  
  61731.       0.30090E-04   0.28130E-05  
  62938.       0.28984E-04   0.26867E-05  
  64168.       0.27918E-04   0.25661E-05  
  65423.       0.26891E-04   0.24508E-05  
  66702.       0.25901E-04   0.23407E-05  
  68006.       0.24947E-04   0.22354E-05  
  69336.       0.24028E-04   0.21349E-05  
  70692.       0.23142E-04   0.20388E-05  
  72074.       0.22288E-04   0.19470E-05  
  73483.       0.21465E-04   0.18593E-05  
  74920.       0.20673E-04   0.17755E-05  
  76385.       0.19909E-04   0.16954E-05  
  77878.       0.19173E-04   0.16189E-05  
  79401.       0.18464E-04   0.15459E-05  
  80954.       0.17781E-04   0.14760E-05  
  82537.       0.17123E-04   0.14094E-05  
  84150.       0.16489E-04   0.13457E-05  
  85796.       0.15878E-04   0.12848E-05  
  87473.       0.15290E-04   0.12267E-05  
  89183.       0.14723E-04   0.11711E-05  
  90927.       0.14177E-04   0.11181E-05  
  92705.       0.13651E-04   0.10674E-05  
  94518.       0.13144E-04   0.10191E-05  
  96366.       0.12656E-04   0.97283E-06  
  98250.       0.12186E-04   0.92869E-06  
 0.10017E+06   0.11733E-04   0.88653E-06  
 0.10213E+06   0.11296E-04   0.84627E-06  
 0.10413E+06   0.10876E-04   0.80781E-06  
 0.10616E+06   0.10471E-04   0.77109E-06  
